time,pressure,pi,psi,ct,rw,Uo,Bo,h
0.6,4388,1426,0.1,0.000018,20,1.5,1.25,30
1.2,4367,,,,,,,
1.8,4355,,,,,,,
2.4,4344,,,,,,,
3.6,4334,,,,,,,
6,4318,,,,,,,
8.4,4309,,,,,,,
12,4300,,,,,,,
24,4278,,,,,,,
36,4261,,,,,,,
48,4258,,,,,,,
60,4253,,,,,,,
72,4249,,,,,,,
84,4244,,,,,,,
96,4240,,,,,,,
108,4235,,,,,,,
120,4230,,,,,,,
144,4222,,,,,,,
180,4206,,,,,,,
